-0.060
-0.065
-0.060
-0.075
-0.065
-0.070
-0.070
-0.090
-0.080
-0.095
-0.080
-0.095
-0.080
-0.095
-0.085
-0.090
-0.090
-0.100
-0.085
-0.105
-0.090
-0.045
0.005
0.015
0.045
0.155
0.140
0.045
0.005
-0.040
-0.085
-0.200
-0.195
-0.200
-0.200
-0.240
-0.130
0.340
1.155
1.470
-0.155
-0.825
-0.590
-0.350
-0.155
-0.170
-0.140
-0.155
-0.115
-0.125
-0.090
-0.095
-0.065
-0.055
-0.015
-0.005
0.035
0.045
0.090
0.110
0.150
0.180
0.205
0.225
0.230
0.220
0.235
0.230
0.200
0.170
0.120
0.075
0.040
0.020
0.005
-0.005
-0.005
-0.010
-0.015
-0.010
0.000
-0.005
-0.020
-0.020
-0.015
-0.025
-0.035
-0.045
-0.045
-0.060
-0.065
-0.070
-0.055
-0.060
-0.080
-0.075
-0.090
-0.065
-0.075
-0.080
-0.080
-0.085
-0.090
-0.075
-0.085
-0.095
-0.105
-0.090
-0.095
-0.070
-0.045
0.005
0.030
0.070
0.195
0.145
0.050
-0.015
-0.025
-0.115
-0.180
-0.190
-0.185
-0.185
-0.215
0.010
0.575
1.185
0.960
-0.160
-0.740
-0.640
-0.350
-0.175
-0.145
-0.150
-0.145
-0.105
-0.120
-0.090
-0.085
-0.070
-0.040
-0.020
0.005
0.020
0.045
0.080
0.115
0.140
0.165
0.210
0.190
0.220
0.210
0.215
0.215
0.160
0.135
0.100
0.050
0.035
-0.005
0.005
-0.005
-0.015
-0.020
-0.010
0.000
-0.020
-0.005
-0.040
-0.035
-0.050
-0.040
-0.055
-0.075
-0.050
-0.075
-0.090
-0.080
-0.090
-0.080
-0.075
-0.085
-0.085
-0.095
-0.095
-0.105
-0.080
-0.115
-0.100
-0.095
-0.100
-0.075
-0.005
0.010
0.055
0.185
0.145
0.075
-0.005
-0.025
-0.110
-0.175
-0.180
-0.220
-0.175
-0.240
-0.030
0.530
1.210
1.220
-0.105
-0.795
-0.690
-0.375
-0.165
-0.155
-0.135
-0.150
-0.120
-0.120
-0.090
-0.095
-0.050
-0.050
-0.010
-0.005
0.030
0.080
0.075
0.145
0.155
0.200
0.200
0.240
0.235
0.245
0.245
0.215
0.180
0.150
0.090
0.035
0.025
0.000
-0.015
-0.030
0.000
-0.020
-0.005
-0.025
-0.030
-0.015
-0.010
-0.035
-0.040
-0.050
-0.045
-0.040
-0.075
-0.065
-0.095
-0.085
-0.085
-0.090
-0.100
-0.100
-0.080
-0.105
-0.105
-0.100
-0.105
-0.095
-0.100
-0.090
-0.035
0.010
0.035
0.070
0.190
0.125
0.045
-0.035
-0.060
-0.155
-0.210
-0.225
-0.200
-0.215
-0.265
0.070
0.865
1.495
0.625
-0.440
-0.815
-0.600
-0.310
-0.175
-0.180
-0.165
-0.135
-0.135
-0.115
-0.105
-0.085
-0.060
-0.030
-0.020
0.015
0.050
0.070
0.105
0.165
0.200
0.205
0.235
0.235
0.265
0.260
0.235
0.215
0.170
0.125
0.090
0.025
-0.015
-0.030
-0.035
-0.040
-0.040
-0.035
-0.040
-0.020
-0.040
-0.040
-0.030
-0.045
-0.065
-0.060
-0.060
-0.090
-0.080
-0.095
-0.085
-0.105
-0.090
-0.100
-0.105
-0.115
-0.100
-0.115
-0.110
-0.135
-0.095
-0.125
-0.105
-0.085
-0.015
0.020
0.030
0.135
0.160
0.105
0.030
-0.050
-0.050
-0.170
-0.205
-0.215
-0.175
-0.210
-0.215
0.175
1.090
1.700
0.335
-0.615
-0.705
-0.460
-0.175
-0.165
-0.145
-0.155
-0.115
-0.120
-0.105
-0.105
-0.085
-0.060
-0.015
-0.005
0.020
0.050
0.080
0.105
0.180
0.205
0.240
0.235
0.270
0.270
0.280
0.260
0.230
0.175
0.135
0.090
0.045
0.000
-0.005
-0.025
-0.025
-0.025
-0.020
0.000
-0.005
-0.005
-0.005
-0.005
-0.010
-0.025
-0.020
-0.040
-0.040
-0.040
-0.050
-0.060
-0.050
-0.065
-0.060
-0.070
-0.060
-0.090
-0.080
-0.095
-0.085
-0.100
-0.090
-0.095
-0.085
-0.100
-0.075
-0.095
-0.080
-0.075
0.000
0.030
0.035
0.135
0.145
0.070
0.015
-0.045
-0.055
-0.185
-0.190
-0.220
-0.180
-0.210
-0.185
0.220
1.150
1.720
0.155
-0.700
-0.660
-0.405
-0.150
-0.160
-0.135
-0.145
-0.120
-0.125
-0.090
-0.090
-0.055
-0.040
-0.015
0.000
0.030
0.050
0.095
0.110
0.165
0.190
0.230
0.245
0.255
0.255
0.265
0.255
0.230
0.185
0.145
0.100
0.060
0.025
0.025
0.010
0.010
0.010
0.015
0.010
0.025
0.020
0.020
0.020
0.015
0.000
0.000
-0.010
-0.015
-0.020
-0.030
-0.035
-0.035
-0.045
-0.040
-0.045
-0.045
-0.055
-0.045
-0.055
-0.045
-0.060
-0.050
-0.060
-0.055
-0.080
-0.065
-0.090
-0.075
-0.090
-0.070
-0.075
-0.065
-0.080
-0.065
-0.030
0.025
0.040
0.065
0.180
0.145
0.055
0.015
-0.035
-0.060
-0.175
-0.170
-0.195
-0.175
-0.220
-0.115
0.355
1.240
1.595
-0.115
-0.815
-0.565
-0.300
-0.130
-0.160
-0.130
-0.135
-0.110
-0.120
-0.090
-0.085
-0.055
-0.040
-0.005
0.000
0.040
0.050
0.095
0.125
0.170
0.190
0.220
0.230
0.245
0.250
0.260
0.240
0.220
0.175
0.135
0.085
0.055
0.020
0.015
0.010
0.010
0.000
0.000
0.000
0.010
0.005
0.020
0.010
0.000
-0.010
-0.015
-0.020
-0.020
-0.025
-0.035
-0.030
-0.045
-0.050
-0.050
-0.055
-0.065
-0.065
-0.060
-0.065
-0.070
-0.060
-0.060
-0.055
-0.060
-0.065
-0.080
-0.065
-0.080
-0.065
-0.075
-0.070
-0.085
-0.070
-0.085
-0.075
-0.085
-0.060
-0.045
0.020
0.040
0.055
0.180
0.155
0.060
0.020
-0.025
-0.055
-0.180
-0.160
-0.170
-0.165
-0.195
-0.100
0.350
1.115
1.495
-0.040
-0.730
-0.620
-0.365
-0.130
-0.150
-0.135
-0.150
-0.120
-0.130
-0.105
-0.090
-0.055
-0.060
-0.035
-0.015
0.020
0.045
0.065
0.095
0.145
0.180
0.215
0.200
0.225
0.235
0.245
0.235
0.225
0.175
0.130
0.090
0.050
0.035
0.015
0.005
0.000
-0.005
0.000
0.000
0.000
0.000
-0.005
-0.005
-0.020
-0.020
-0.040
-0.050
-0.060
-0.060
-0.060
-0.070
-0.065
-0.075
-0.070
-0.065
-0.075
-0.075
-0.075
-0.090
-0.075
-0.085
-0.080
-0.090
-0.075
-0.090
-0.080
-0.090
-0.080
-0.100
-0.085
-0.100
-0.075
-0.085
-0.090
-0.075
-0.015
0.025
0.055
0.155
0.160
0.095
0.015
-0.035
-0.050
-0.175
-0.170
-0.190
-0.175
-0.200
-0.105
0.335
1.095
1.470
0.065
-0.660
-0.690
-0.440
-0.185
-0.160
-0.135
-0.135
-0.115
-0.115
-0.110
-0.095
-0.055
-0.050
-0.015
-0.005
0.045
0.050
0.095
0.120
0.165
0.185
0.210
0.225
0.245
0.240
0.240
0.235
0.210
0.165
0.125
0.070
0.045
0.010
0.020
0.005
0.000
0.000
0.000
0.000
0.000
-0.005
-0.010
-0.005
-0.025
-0.005
-0.040
-0.040
-0.045
-0.045
-0.040
-0.055
-0.065
-0.050
-0.065
-0.065
-0.065
-0.065
-0.070
-0.065
-0.070
-0.065
-0.070
-0.070
-0.085
-0.060
-0.090
-0.065
-0.085
-0.080
-0.085
-0.050
-0.090
-0.075
-0.055
0.005
0.055
0.060
0.160
0.155
0.080
0.015
-0.020
-0.045
-0.170
-0.170
-0.175
-0.160
-0.200
-0.105
0.360
1.160
1.550
0.070
-0.690
-0.660
-0.410
-0.155
-0.155
-0.135
-0.135
-0.105
-0.110
-0.085
-0.090
-0.065
-0.045
-0.005
0.000
0.040
0.065
0.100
0.120
0.175
0.190
0.230
0.255
0.270
0.265
0.275
0.245
0.215
0.175
0.140
0.095
0.040
0.025
0.015
0.000
0.000
0.000
0.000
0.000
0.000
0.000
0.000
-0.005
-0.010
-0.010
-0.015
-0.030
-0.035
-0.045
-0.045
-0.050
-0.045
-0.065
-0.070
-0.075
-0.070
-0.090
-0.085
-0.090
-0.070
-0.085
-0.085
-0.095
-0.085
-0.090
-0.085
-0.090
-0.090
-0.100
-0.090
-0.105
-0.090
-0.100
-0.085
-0.055
0.000
0.035
0.050
0.170
0.135
0.060
0.010
-0.035
-0.075
-0.190
-0.185
-0.205
-0.180
-0.225
-0.110
0.380
1.215
1.545
-0.025
-0.765
-0.620
-0.370
-0.155
-0.170
-0.145
-0.160
-0.130
-0.145
-0.125
-0.120
-0.080
-0.065
-0.035
-0.020
0.010
0.035
0.080
0.105
0.155
0.180
0.220
0.225
0.240
0.235
0.245
0.225
0.200
0.155
0.115
0.075
0.050
0.020
0.000
-0.010
-0.015
-0.010
-0.010
-0.005
0.000
0.000
0.000
0.000
0.000
-0.005
-0.010
-0.020
-0.025
-0.035
-0.045
-0.055
-0.055
-0.060
-0.060
-0.060
-0.055
-0.055
-0.055
-0.065
-0.060
-0.055
-0.045
-0.055
-0.055
-0.055
-0.055
-0.075
-0.065
-0.080
-0.065
-0.080
-0.075
-0.090
-0.085
-0.105
-0.090
-0.110
-0.095
-0.110
-0.100
-0.085
-0.025
0.010
0.010
0.100
0.135
0.075
0.000
-0.050
-0.045
-0.175
-0.195
-0.205
-0.190
-0.205
-0.220
0.145
1.025
1.605
0.240
-0.625
-0.665
-0.425
-0.180
-0.185
-0.175
-0.175
-0.150
-0.150
-0.120
-0.120
-0.090
-0.080
-0.045
-0.025
0.000
0.020
0.060
0.080
0.130
0.160
0.185
0.195
0.210
0.210
0.220
0.215
0.195
0.170
0.135
0.085
0.045
0.015
-0.005
-0.015
-0.015
-0.015
-0.005
-0.005
0.000
0.000
0.015
0.010
0.000
0.000
0.000
-0.010
-0.015
-0.025
-0.030
-0.025
-0.040
-0.045
-0.040
-0.050
-0.055
-0.045
-0.030
-0.045
-0.050
-0.040
-0.045
-0.055
-0.055
-0.065
-0.065
-0.065
-0.070
-0.080
-0.065
-0.075
-0.075
-0.080
-0.070
-0.080
-0.080
-0.085
-0.065
-0.080
-0.080
-0.090
-0.090
-0.075
-0.025
0.035
0.045
0.115
0.165
0.125
0.040
-0.015
-0.005
-0.135
-0.170
-0.185
-0.165
-0.180
-0.200
0.135
0.890
1.440
0.425
-0.470
-0.670
-0.455
-0.200
-0.155
-0.130
-0.140
-0.125
-0.130
-0.105
-0.110
-0.080
-0.060
-0.045
-0.030
0.005
0.015
0.045
0.085
0.110
0.140
0.180
0.205
0.215
0.215
0.235
0.225
0.225
0.190
0.160
0.125
0.070
0.035
0.015
0.010
0.005
0.005
0.000
0.005
0.010
0.005
0.005
0.010
0.000
0.005
0.000
-0.010
-0.015
-0.020
-0.015
-0.025
-0.030
-0.030
-0.040
-0.035
-0.035
-0.040
-0.045
-0.045
-0.050
-0.045
-0.055
-0.055
-0.060
-0.060
-0.065
-0.055
-0.065
-0.065
-0.065
-0.060
-0.060
-0.060
-0.070
-0.060
-0.080
-0.075
-0.075
-0.075
-0.080
-0.070
-0.065
-0.010
0.030
0.050
0.100
0.200
0.145
0.055
-0.005
0.000
-0.120
-0.160
-0.170
-0.160
-0.175
-0.210
0.125
0.835
1.350
0.530
-0.335
-0.675
-0.540
-0.250
-0.145
-0.145
-0.135
-0.115
-0.115
-0.090
-0.090
-0.075
-0.060
-0.025
0.000
0.030
0.040
0.080
0.095
0.130
0.160
0.205
0.210
0.220
0.225
0.250
0.250
0.230
0.195
0.170
0.115
0.075
0.050
0.035
0.005
0.015
0.030
0.025
0.020
0.020
0.030
0.020
0.035
0.015
0.005
0.005
-0.005
-0.005
-0.020
-0.010
-0.015
-0.035
-0.030
-0.025
-0.025
-0.025
-0.040
-0.040
-0.035
-0.030
-0.030
-0.040
-0.030
-0.040
-0.030
-0.035
-0.035
-0.045
-0.045
-0.065
-0.055
-0.060
-0.060
-0.075
-0.050
-0.060
-0.060
-0.065
-0.070
-0.040
0.010
0.055
0.075
0.180
0.185
0.100
0.025
-0.025
-0.055
-0.175
-0.165
-0.180
-0.170
-0.220
-0.100
0.365
1.095
1.450
0.065
-0.665
-0.670
-0.435
-0.185
-0.170
-0.150
-0.155
-0.130
-0.120
-0.095
-0.105
-0.070
-0.055
-0.025
-0.005
0.035
0.040
0.085
0.120
0.165
0.190
0.220
0.235
0.250
0.255
0.260
0.245
0.215
0.180
0.140
0.095
0.060
0.030
0.015
0.010
0.010
0.010
0.000
0.005
0.010
0.015
0.000
0.005
0.000
0.000
-0.020
-0.025
-0.015
-0.015
-0.015
-0.030
-0.040
-0.035
-0.045
-0.040
-0.040
-0.045
-0.050
-0.040
-0.050
-0.050
-0.050
-0.055
-0.060
-0.050
-0.065
-0.055
-0.075
-0.055
-0.075
-0.055
-0.075
-0.065
-0.070
-0.075
-0.100
-0.070
-0.045
0.010
0.050
0.065
0.170
0.155
0.085
0.035
-0.020
-0.030
-0.160
-0.165
-0.190
-0.165
-0.205
-0.120
0.310
1.150
1.590
0.070
-0.685
-0.615
-0.385
-0.160
-0.175
-0.140
-0.150
-0.135
-0.140
-0.120
-0.115
-0.085
-0.080
-0.045
-0.030
0.005
0.020
0.055
0.085
0.145
0.175
0.205
0.215
0.235
0.240
0.245
0.235
0.215
0.180
0.145
0.095
0.055
0.015
0.010
-0.015
-0.010
-0.010
-0.010
-0.015
-0.005
0.000
0.000
-0.005
-0.015
-0.015
-0.020
-0.025
-0.040
-0.055
-0.050
-0.055
-0.050
-0.070
-0.070
-0.070
-0.080
-0.070
-0.075
-0.075
-0.080
-0.075
-0.085
-0.075
-0.075
-0.075
-0.080
-0.085
-0.090
-0.075
-0.080
-0.075
-0.100
-0.095
-0.080
-0.085
-0.075
-0.025
0.030
0.020
0.085
0.150
0.105
0.025
-0.040
-0.035
-0.150
-0.200
-0.210
-0.195
-0.195
-0.225
0.095
0.835
1.390
0.585
-0.350
-0.685
-0.505
-0.235
-0.160
-0.150
-0.150
-0.135
-0.140
-0.120
-0.100
-0.075
-0.060
-0.035
-0.015
0.010
0.035
0.070
0.100
0.140
0.170
0.210
0.230
0.250
0.260
0.260
0.260
0.235
0.200
0.155
0.115
0.070
0.035
0.010
0.010
0.000
0.000
-0.005
0.000
0.000
0.000
0.000
0.000
0.000
0.000
-0.010
-0.010
-0.015
-0.025
-0.030
-0.040
-0.045
-0.055
-0.055
-0.060
-0.060
-0.065
-0.065
-0.065
-0.060
-0.065
-0.065
-0.080
-0.075
-0.080
-0.070
-0.085
-0.070
-0.085
-0.070
-0.085
-0.070
-0.090
-0.080
-0.090
-0.075
-0.095
-0.080
-0.055
0.005
0.040
0.040
0.150
0.140
0.065
0.005
-0.045
-0.055
-0.190
-0.190
-0.210
-0.180
-0.205
-0.160
0.255
1.150
1.640
0.005
-0.720
-0.590
-0.365
-0.155
-0.180
-0.145
-0.155
-0.125
-0.130
-0.095
-0.095
-0.060
-0.055
-0.015
-0.005
0.025
0.045
0.085
0.115
0.165
0.205
0.245
0.250
0.260
0.255
0.250
0.250
0.230
0.185
0.145
0.105
0.060
0.025
0.005
0.000
-0.010
0.000
0.000
0.000
0.000
0.000
0.000
0.005
0.000
-0.005
-0.005
-0.010
-0.015
-0.020
-0.025
-0.035
-0.045
-0.035
-0.050
-0.050
-0.055
-0.055
-0.060
-0.055
-0.060
-0.065
-0.065
-0.060
-0.060
-0.050
-0.070
-0.060
-0.065
-0.055
-0.070
-0.060
-0.080
-0.065
-0.080
-0.080
-0.085
-0.075
-0.085
-0.075
-0.090
-0.080
-0.045
0.000
0.040
0.070
0.180
0.145
0.050
0.000
-0.035
-0.085
-0.185
-0.185
-0.190
-0.170
-0.225
-0.025
0.500
1.130
1.185
-0.070
-0.700
-0.620
-0.355
-0.150
-0.160
-0.140
-0.145
-0.120
-0.115
-0.095
-0.085
-0.075
-0.065
-0.030
-0.015
0.010
0.030
0.080
0.100
0.140
0.170
0.215
0.230
0.245
0.245
0.260
0.240
0.225
0.180
0.160
0.115
0.065
0.045
0.045
0.015
0.000
0.005
0.005
0.010
0.000
0.000
-0.005
-0.005
-0.010
-0.020
-0.030
-0.030
-0.025
-0.040
-0.030
-0.060
-0.050
-0.045
-0.045
-0.055
-0.060
-0.055
-0.065
-0.065
-0.060
-0.055
-0.060
-0.070
-0.055
-0.075
-0.060
-0.075
-0.075
-0.080
-0.080
-0.090
-0.080
-0.090
-0.070
-0.070
-0.020
0.025
0.045
0.100
0.185
0.130
0.040
-0.030
-0.020
-0.130
-0.155
-0.170
-0.165
-0.180
-0.200
0.145
0.845
1.350
0.575
-0.295
-0.665
-0.545
-0.275
-0.160
-0.150
-0.145
-0.135
-0.140
-0.125
-0.105
-0.085
-0.070
-0.055
-0.040
0.000
0.020
0.065
0.065
0.105
0.140
0.190
0.195
0.225
0.220
0.220
0.230
0.215
0.175
0.135
0.090
0.050
0.025
0.010
-0.005
-0.015
-0.010
0.000
0.000
0.000
0.000
0.000
0.000
-0.005
0.000
-0.025
-0.025
-0.025
-0.025
-0.030
-0.050
-0.035
-0.050
-0.045
-0.055
-0.050
-0.055
-0.055
-0.080
-0.050
-0.065
-0.050
-0.080
-0.075
-0.075
-0.075
-0.085
-0.060
-0.080
-0.085
-0.075
-0.020
0.020
0.045
0.125
0.165
0.115
0.020
-0.045
-0.040
-0.165
-0.185
-0.210
-0.180
-0.205
-0.210
0.160
0.950
1.475
0.375
-0.450
-0.700
-0.525
-0.250
-0.170
-0.165
-0.165
-0.135
-0.135
-0.110
-0.115
-0.085
-0.080
-0.045
-0.035
0.010
0.020
0.040
0.090
0.130
0.170
0.205
0.210
0.250
0.235
0.250
0.225
0.225
0.170
0.125
0.100
0.035
0.010
-0.015
-0.020
-0.035
-0.025
-0.030
-0.030
-0.030
-0.035
-0.045
-0.040
-0.035
-0.040
-0.055
-0.050
-0.040
-0.070
-0.060
-0.065
-0.060
-0.095
-0.095
-0.100
-0.065
-0.095
-0.115
-0.090
-0.085
-0.120
-0.080
-0.125
-0.115
-0.105
-0.085
-0.065
0.010
0.040
0.060
0.195
0.155
0.075
0.000
-0.035
-0.090
-0.185
-0.180
-0.190
-0.170
-0.235
-0.080
0.445
1.180
1.415
0.040
-0.710
-0.675
-0.410
-0.165
-0.175
-0.140
-0.130
-0.110
-0.120
-0.100
-0.085
-0.055
-0.045
-0.015
-0.005
0.025
0.055
0.100
0.130
0.175
0.185
0.235
0.250
0.265
0.265
0.270
0.255
0.215
0.170
0.110
0.060
0.040
0.000
-0.010
-0.025
-0.020
-0.030
-0.040
-0.040
-0.030
-0.020
-0.030
-0.035
-0.035
-0.040
-0.055
-0.045
-0.065
-0.065
-0.075
-0.070
-0.080
-0.080
-0.090
-0.080
-0.090
-0.095
-0.100
-0.095
-0.100
-0.100
-0.110
-0.105
-0.110
-0.105
-0.090
-0.025
0.030
0.015
0.095
0.130
0.085
0.005
-0.050
-0.060
-0.175
-0.210
-0.210
-0.205
-0.210
-0.245
0.065
0.890
1.575
0.785
-0.380
-0.715
-0.475
-0.225
-0.180
-0.175
-0.165
-0.155
-0.145
-0.125
-0.115
-0.090
-0.075
-0.045
-0.020
0.000
0.035
0.070
0.110
0.150
0.190
0.230
0.260
0.270
0.275
0.280
0.270
0.240
0.195
0.145
0.095
0.055
0.025
0.000
-0.005
-0.010
-0.010
-0.005
-0.005
-0.005
0.000
0.000
0.000
0.000
-0.010
-0.015
-0.020
-0.025
-0.035
-0.040
-0.050
-0.055
-0.060
-0.065
-0.065
-0.065
-0.065
-0.075
-0.065
-0.075
-0.075
-0.075
-0.075
-0.080
-0.075
-0.085
-0.070
-0.080
-0.070
-0.080
-0.080
-0.090
-0.080
-0.090
-0.080
-0.095
-0.085
-0.060
-0.010
0.035
0.030
0.125
0.140
0.090
0.015
-0.030
-0.035
-0.160
-0.185
-0.185
-0.150
-0.185
-0.195
0.150
1.065
1.715
0.380
-0.620
-0.630
-0.390
-0.160
-0.165
-0.150
-0.160
-0.135
-0.135
-0.130
-0.110
-0.085
-0.070
-0.035
-0.025
0.000
0.030
0.085
0.095
0.150
0.175
0.225
0.240
0.255
0.275
0.275
0.265
0.260
0.210
0.175
0.110
0.070
0.040
0.025
0.000
-0.010
-0.005
-0.005
-0.020
-0.010
-0.020
-0.005
0.000
-0.030
-0.020
-0.025
-0.015
-0.040
-0.035
-0.045
-0.055
-0.045
-0.060
-0.060
-0.055
-0.070
-0.060
-0.070
-0.060
-0.085
-0.080
-0.070
-0.065
-0.080
-0.085
-0.080
-0.105
-0.090
-0.080
-0.085
-0.100
-0.090
-0.100
-0.080
-0.020
0.005
0.030
0.090
0.170
0.125
0.040
-0.035
-0.025
-0.155
-0.195
-0.200
-0.185
-0.195
-0.205
0.115
0.780
1.265
0.595
-0.285
-0.720
-0.615
-0.330
-0.180
-0.165
-0.150
-0.140
-0.140
-0.125
-0.115
-0.085
-0.055
-0.035
-0.025
0.005
0.010
0.060
0.080
0.100
0.145
0.170
0.210
0.230
0.230
0.250
0.235
0.220
0.195
0.165
0.125
0.070
0.040
0.025
0.005
-0.005
-0.010
0.000
0.005
0.000
0.000
-0.005
-0.010
-0.010
-0.030
-0.030
-0.020
-0.020
-0.050
-0.050
-0.065
-0.055
-0.065
-0.065
-0.070
-0.070
-0.080
-0.085
-0.085
-0.080
-0.075
-0.065
-0.090
-0.105
-0.070
-0.105
-0.075
-0.095
-0.070
-0.095
-0.085
-0.090
-0.070
-0.070
-0.005
0.020
0.045
0.135
0.200
0.115
0.030
-0.030
-0.035
-0.170
-0.175
-0.175
-0.170
-0.205
-0.165
0.265
1.075
1.570
0.210
-0.570
-0.710
-0.510
-0.240
-0.170
-0.155
-0.145
-0.135
-0.125
-0.105
-0.110
-0.055
-0.075
-0.015
-0.030
0.025
0.030
0.060
0.100
0.155
0.170
0.225
0.240
0.275
0.255
0.250
0.250
0.220
0.185
0.140
0.080
0.060
0.010
0.000
-0.010
-0.035
-0.015
-0.020
-0.020
-0.015
-0.005
0.000
-0.030
-0.015
-0.030
-0.040
-0.035
-0.050
-0.055
-0.060
-0.075
-0.080
-0.090
-0.070
-0.075
-0.080
-0.095
-0.085
-0.100
-0.090
-0.100
-0.100
-0.120
-0.135
-0.100
-0.015
0.010
0.035
0.120
0.170
0.085
-0.005
-0.060
-0.055
-0.195
-0.215
-0.220
-0.200
-0.250
-0.145
0.310
1.200
1.645
0.055
-0.750
-0.795
-0.505
-0.240
-0.210
-0.140
-0.170
-0.140
-0.165
-0.120
-0.115
-0.075
-0.075
-0.050
0.000
-0.020
0.045
0.065
0.115
0.165
0.190
0.245
0.255
0.250
0.260
0.285
0.265
0.185
0.170
0.095
0.055
0.030
-0.050
-0.025
-0.060
-0.045
-0.060
-0.070
-0.065
-0.050
-0.050
-0.055
-0.040
-0.045
-0.050
-0.050
-0.070
-0.095
-0.075
-0.080
-0.095
-0.085
-0.100
-0.095
-0.125
-0.100
-0.100
-0.090
-0.055
0.015
0.020
0.060
0.160
0.140
0.035
-0.025
-0.035
-0.125
-0.215
-0.210
-0.190
-0.205
-0.265
-0.005
0.745
1.480
1.130
-0.275
-0.855
-0.650
-0.355
-0.175
-0.175
-0.155
-0.150
-0.150
-0.135
-0.120
-0.075
-0.085
-0.055
-0.020
0.000
0.010
0.065
0.095
0.120
0.210
0.230
0.265
0.285
0.290
0.300
0.275
0.240
0.180
0.140
0.070
0.005
-0.010
-0.030
-0.065
-0.070
-0.070
-0.075
-0.080
-0.060
-0.060
-0.060
-0.055
-0.055
-0.055
-0.060
-0.070
-0.080
-0.080
-0.080
-0.110
-0.100
-0.110
-0.095
-0.110
-0.125
-0.135
-0.085
-0.060
0.005
0.015
0.045
0.145
0.135
0.030
-0.030
-0.065
-0.120
-0.225
-0.220
-0.225
-0.215
-0.255
-0.050
0.615
1.465
1.475
-0.185
-0.885
-0.615
-0.335
-0.170
-0.175
-0.160
-0.150
-0.140
-0.155
-0.130
-0.115
-0.060
-0.070
-0.040
-0.025
0.020
0.040
0.090
0.120
0.180
0.225
0.255
0.285
0.300
0.300
0.290
0.235
0.200
0.140
0.090
0.035
0.005
-0.025
-0.040
-0.050
-0.040
-0.045
-0.045
-0.040
-0.040
-0.045
-0.045
-0.050
-0.040
-0.065
-0.055
-0.065
-0.070
-0.080
-0.080
-0.095
-0.075
-0.090
-0.105
-0.115
-0.105
-0.125
-0.100
-0.115
-0.105
-0.070
-0.005
0.030
0.035
0.125
0.145
0.080
0.025
-0.050
-0.060
-0.190
-0.200
-0.210
-0.205
-0.225
-0.235
0.155
1.090
1.750
0.420
-0.575
-0.670
-0.420
-0.175
-0.175
-0.155
-0.165
-0.145
-0.155
-0.120
-0.125
-0.085
-0.080
-0.045
-0.040
0.000
0.025
0.065
0.090
0.150
0.180
0.225
0.240
0.265
0.275
0.280
0.260
0.235
0.180
0.125
0.070
0.030
0.000
-0.020
-0.030
-0.030
-0.035
-0.030
-0.030
-0.035
-0.025
-0.035
-0.035
-0.030
-0.040
-0.055
-0.060
-0.080
-0.075
-0.080
-0.080
-0.090
-0.090
-0.105
-0.100
-0.105
-0.100
-0.105
-0.100
-0.105
-0.100
-0.075
-0.005
0.040
0.005
0.115
0.135
0.100
0.005
-0.060
-0.070
-0.180
-0.215
-0.215
-0.200
-0.205
-0.245
0.060
0.890
1.580
0.700
-0.470
-0.685
-0.410
-0.190
-0.185
-0.175
-0.170
-0.150
-0.140
-0.130
-0.120
-0.095
-0.070
-0.045
-0.025
-0.005
0.025
0.050
0.085
0.135
0.180
0.210
0.240
0.270
0.260
0.270
0.270
0.240
0.190
0.140
0.095
0.055
0.015
-0.005
-0.005
-0.010
-0.010
-0.020
-0.015
-0.010
-0.020
-0.025
-0.020
-0.035
-0.030
-0.025
-0.055
-0.055
-0.055
-0.065
-0.070
-0.060
-0.075
-0.080
-0.095
-0.080
-0.095
-0.090
-0.090
-0.095
-0.100
-0.090
-0.110
-0.085
-0.060
-0.015
0.030
0.045
0.130
0.160
0.095
0.045
-0.035
-0.040
-0.175
-0.190
-0.195
-0.195
-0.200
-0.210
0.125
0.865
1.450
0.450
-0.480
-0.720
-0.535
-0.235
-0.180
-0.170
-0.160
-0.160
-0.145
-0.140
-0.125
-0.080
-0.085
-0.060
-0.040
0.005
0.020
0.045
0.085
0.135
0.155
0.195
0.215
0.230
0.270
0.265
0.260
0.235
0.175
0.160
0.090
0.050
0.020
0.010
-0.015
-0.025
-0.015
-0.020
-0.005
-0.030
-0.005
-0.015
-0.030
-0.020
-0.030
-0.010
-0.045
-0.065
-0.070
-0.075
-0.055
-0.070
-0.085
-0.065
-0.100
-0.060
-0.105
-0.080
-0.095
-0.095
-0.100
-0.090
-0.110
-0.085
-0.070
-0.005
0.025
0.055
0.140
0.155
0.090
0.020
-0.035
-0.075
-0.165
-0.195
-0.210
-0.205
-0.225
-0.170
0.220
1.055
1.545
0.190
-0.650
-0.765
-0.535
-0.235
-0.195
-0.135
-0.160
-0.135
-0.140
-0.120
-0.095
-0.080
-0.065
-0.035
-0.010
0.000
0.020
0.060
0.100
0.140
0.160
0.210
0.225
0.230
0.265
0.240
0.240
0.225
0.165
0.120
0.085
0.040
0.000
0.000
-0.025
-0.010
-0.025
-0.050
-0.010
-0.025
-0.030
-0.010
-0.040
-0.040
-0.040
-0.025
-0.065
-0.055
-0.075
-0.065
-0.085
-0.080
-0.070
-0.085
-0.100
-0.090
-0.090
-0.100
-0.110
-0.100
-0.090
-0.070
-0.045
0.000
0.035
0.060
0.185
0.160
0.065
0.030
-0.040
-0.110
-0.180
-0.195
-0.205
-0.185
-0.240
-0.050
0.580
1.330
1.290
-0.150
-0.840
-0.705
-0.395
-0.190
-0.175
-0.155
-0.185
-0.125
-0.145
-0.120
-0.090
-0.075
-0.050
-0.035
-0.010
0.025
0.030
0.105
0.115
0.165
0.200
0.235
0.260
0.265
0.265
0.285
0.240
0.200
0.160
0.110
0.070
0.015
-0.010
-0.015
-0.025
-0.040
-0.030
-0.020
-0.030
-0.025
-0.020
-0.030
-0.035
-0.030
-0.040
-0.050
-0.065
-0.055
-0.065
-0.065
-0.085
-0.080
-0.105
-0.085
-0.095
-0.085
-0.115
-0.100
-0.115
-0.090
-0.125
-0.105
-0.065
0.000
0.020
0.055
0.165
0.140
0.050
0.000
-0.045
-0.095
-0.195
-0.205
-0.225
-0.195
-0.230
-0.095
0.455
1.345
1.605
-0.075
-0.845
-0.635
-0.365
-0.160
-0.170
-0.150
-0.160
-0.135
-0.130
-0.105
-0.100
-0.070
-0.055
-0.030
-0.015
0.020
0.055
0.085
0.105
0.175
0.195
0.235
0.255
0.255
0.270
0.270
0.250
0.220
0.180
0.120
0.065
0.035
0.015
0.000
-0.015
-0.010
-0.020
-0.005
-0.005
-0.005
0.000
0.000
-0.005
-0.020
-0.020
-0.015
-0.030
-0.045
-0.050
-0.065
-0.075
-0.065
-0.070
-0.085
-0.080
-0.080
-0.085
-0.075
-0.080
-0.095
-0.090
-0.085
-0.075
-0.095
-0.095
-0.095
-0.095
-0.100
-0.110
-0.080
-0.025
0.025
0.020
0.095
0.155
0.110
0.015
-0.025
-0.035
-0.150
-0.190
-0.195
-0.195
-0.200
-0.235
0.065
0.870
1.575
0.800
-0.395
-0.740
-0.480
-0.220
-0.175
-0.165
-0.145
-0.135
-0.140
-0.120
-0.110
-0.080
-0.065
-0.050
-0.030
0.000
0.020
0.055
0.080
0.115
0.160
0.190
0.215
0.240
0.245
0.250
0.250
0.235
0.205
0.165
0.125
0.080
0.045
0.030
0.015
0.010
0.010
0.005
0.010
0.005
0.010
0.000
0.000
-0.005
-0.015
-0.015
-0.020
-0.030
-0.040
-0.040
-0.050
-0.050
-0.055
-0.055
-0.065
-0.065
-0.060
-0.060
-0.060
-0.070
-0.075
-0.065
-0.070
-0.065
-0.070
-0.070
-0.080
-0.075
-0.080
-0.070
-0.080
-0.075
-0.085
-0.075
-0.090
-0.075
-0.090
-0.075
-0.090
-0.075
-0.055
0.000
0.035
0.035
0.125
0.155
0.095
0.015
-0.030
-0.030
-0.155
-0.170
-0.185
-0.175
-0.195
-0.185
0.190
1.105
1.685
0.195
-0.650
-0.620
-0.385
-0.145
-0.155
-0.135
-0.145
-0.125
-0.135
-0.115
-0.110
-0.065
-0.055
-0.030
-0.020
0.015
0.040
0.080
0.095
0.130
0.150
0.190
0.210
0.215
0.220
0.235
0.230
0.225
0.195
0.170
0.130
0.090
0.055
0.040
0.020
0.010
0.010
0.005
0.015
0.010
0.010
0.000
0.000
0.000
0.000
-0.015
-0.020
-0.030
-0.035
-0.045
-0.045
-0.055
-0.040
-0.055
-0.050
-0.055
-0.040
-0.065
-0.060
-0.060
-0.050
-0.070
-0.065
-0.070
-0.055
-0.080
-0.065
-0.085
-0.060
-0.085
-0.075
-0.095
-0.065
-0.045
0.005
0.050
0.065
0.165
0.170
0.095
0.025
-0.040
-0.035
-0.170
-0.170
-0.200
-0.170
-0.195
-0.135
0.265
1.065
1.555
0.070
-0.695
-0.655
-0.415
-0.170
-0.160
-0.145
-0.145
-0.125
-0.140
-0.100
-0.110
-0.080
-0.065
-0.020
-0.015
0.015
0.025
0.065
0.105
0.125
0.160
0.180
0.200
0.230
0.205
0.230
0.215
0.205
0.165
0.150
0.090
0.060
0.030
0.015
0.015
0.000
0.000
0.000
-0.010
0.005
-0.005
0.000
-0.025
-0.025
-0.030
-0.040
-0.040
-0.045
-0.055
-0.055
-0.060
-0.055
-0.065
-0.070
-0.070
-0.080
-0.080
-0.075
-0.080
-0.085
-0.095
-0.080
-0.085
-0.100
-0.085
-0.090
-0.100
-0.100
-0.100
-0.025
0.015
0.020
0.080
0.185
0.120
0.055
-0.015
-0.025
-0.145
-0.170
-0.200
-0.195
-0.190
-0.235
0.060
0.730
1.305
0.725
-0.235
-0.720
-0.615
-0.330
-0.180
-0.155
-0.160
-0.135
-0.140
-0.110
-0.100
-0.080
-0.065
-0.040
-0.010
0.010
0.030
0.050
0.075
0.125
0.150
0.170
0.195
0.215
0.215
0.235
0.220
0.225
0.190
0.145
0.125
0.085
0.065
0.005
-0.005
0.000
0.010
0.005
-0.005
-0.030
-0.025
-0.010
-0.015
-0.015
-0.045
-0.040
-0.030
-0.045
-0.065
-0.075
-0.060
-0.060
-0.080
-0.075
-0.085
-0.065
-0.080
-0.090
-0.085
-0.065
-0.090
-0.085
-0.100
-0.090
-0.090
-0.090
-0.095
-0.030
0.040
0.035
0.085
0.200
0.145
0.050
-0.010
-0.025
-0.130
-0.150
-0.200
-0.190
-0.170
-0.215
0.065
0.830
1.440
0.705
-0.320
-0.775
-0.610
-0.325
-0.180
-0.145
-0.155
-0.130
-0.130
-0.120
-0.100
-0.075
-0.075
-0.035
-0.035
0.005
0.030
0.050
0.070
0.125
0.150
0.205
0.200
0.215
0.235
0.225
0.235
0.205
0.190
0.150
0.095
0.075
0.035
0.015
0.000
-0.015
-0.005
-0.015
-0.020
0.000
-0.015
-0.010
-0.020
-0.025
-0.035
-0.020
-0.040
-0.055
-0.055
-0.055
-0.060
-0.070
-0.065
-0.070
-0.065
-0.065
-0.085
-0.065
-0.075
-0.095
-0.095
-0.090
-0.085
-0.100
-0.085
-0.075
-0.025
0.020
0.030
0.085
0.195
0.145
0.045
-0.015
-0.040
-0.135
-0.200
-0.220
-0.200
-0.205
-0.260
0.040
0.775
1.440
0.905
-0.280
-0.790
-0.600
-0.315
-0.170
-0.165
-0.160
-0.140
-0.140
-0.135
-0.125
-0.090
-0.075
-0.040
-0.030
0.005
0.025
0.040
0.085
0.115
0.155
0.200
0.220
0.230
0.240
0.250
0.260
0.245
0.200
0.160
0.115
0.070
0.040
0.010
0.000
-0.005
-0.010
-0.015
0.000
0.000
-0.005
-0.015
-0.005
-0.015
-0.025
-0.035
-0.035
-0.045
-0.050
-0.060
-0.060
-0.075
-0.060
-0.080
-0.070
-0.075
-0.075
-0.095
-0.075
-0.090
-0.080
-0.095
-0.080
-0.095
-0.080
-0.100
-0.090
-0.065
0.000
0.040
0.045
0.160
0.150
0.070
0.020
-0.040
-0.065
-0.190
-0.185
-0.200
-0.190
-0.220
-0.155
0.295
1.220
1.710
0.065
-0.730
-0.630
-0.395
-0.150
-0.170
-0.155
-0.165
-0.140
-0.140
-0.110
-0.105
-0.075
-0.065
-0.030
-0.020
0.010
0.035
0.075
0.100
0.145
0.170
0.200
0.210
0.220
0.220
0.230
0.220
0.205
0.165
0.135
0.095
0.055
0.025
0.010
0.005
0.000
-0.005
0.000
0.005
0.005
0.000
0.000
-0.005
-0.015
-0.020
-0.030
-0.030
-0.040
-0.045
-0.055
-0.055
-0.060
-0.060
-0.065
-0.065
-0.075
-0.070
-0.080
-0.075
-0.085
-0.075
-0.085
-0.080
-0.090
-0.095
-0.105
-0.095
-0.105
-0.100
-0.070
-0.005
0.030
0.020
0.110
0.150
0.105
0.020
-0.035
-0.040
-0.160
-0.190
-0.200
-0.185
-0.190
-0.225
0.085
0.915
1.560
0.550
-0.500
-0.695
-0.440
-0.180
-0.170
-0.160
-0.155
-0.135
-0.135
-0.120
-0.110
-0.085
-0.065
-0.040
-0.020
0.005
0.025
0.060
0.085
0.120
0.155
0.180
0.195
0.205
0.195
0.210
0.210
0.200
0.175
0.155
0.110
0.075
0.050
0.025
0.010
0.010
0.000
0.000
0.010
0.005
0.000
0.000
-0.010
-0.020
-0.020
-0.025
-0.020
-0.035
-0.040
-0.045
-0.055
-0.060
-0.060
-0.065
-0.065
-0.075
-0.065
-0.080
-0.070
-0.075
-0.065
-0.075
-0.085
-0.085
-0.070
-0.085
-0.080
-0.095
-0.070
-0.095
-0.080
-0.055
0.000
0.030
0.050
0.150
0.165
0.115
0.035
-0.030
-0.045
-0.165
-0.165
-0.185
-0.175
-0.200
-0.180
0.175
0.960
1.480
0.235
-0.550
-0.675
-0.455
-0.190
-0.170
-0.145
-0.165
-0.125
-0.130
-0.100
-0.100
-0.080
-0.075
-0.040
-0.030
0.005
0.015
0.055
0.070
0.105
0.125
0.160
0.175
0.190
0.180
0.200
0.210
0.195
0.165
0.155
0.110
0.080
0.035
0.035
0.025
0.015
0.000
0.000
0.000
0.005
0.000
-0.005
-0.010
-0.020
-0.015
-0.035
-0.045
-0.045
-0.045
-0.040
-0.060
-0.075
-0.065
-0.060
-0.065
-0.070
-0.070
-0.080
-0.070
-0.070
-0.075
-0.090
-0.090
-0.075
-0.090
-0.080
-0.100
-0.085
-0.090
-0.075
-0.115
-0.090
-0.070
-0.020
0.015
0.025
0.130
0.170
0.095
0.015
-0.040
-0.055
-0.185
-0.185
-0.205
-0.175
-0.220
-0.165
0.245
1.005
1.455
0.175
-0.560
-0.705
-0.500
-0.230
-0.185
-0.155
-0.155
-0.135
-0.145
-0.110
-0.105
-0.075
-0.075
-0.035
-0.035
0.000
0.015
0.055
0.070
0.105
0.125
0.155
0.160
0.185
0.195
0.210
0.195
0.175
0.160
0.135
0.100
0.060
0.035
0.015
0.010
-0.005
-0.010
-0.005
0.000
0.000
-0.015
-0.015
-0.020
-0.035
-0.045
-0.050
-0.045
-0.060
-0.070
-0.080
-0.070
-0.075
-0.080
-0.085
-0.085
-0.090
-0.085
-0.085
-0.095
-0.100
-0.090
-0.100
-0.095
-0.105
-0.100
-0.100
-0.100
-0.110
-0.095
-0.055
0.010
0.020
0.055
0.170
0.120
0.040
-0.020
-0.040
-0.130
-0.200
-0.195
-0.200
-0.195
-0.245
0.000
0.645
1.300
0.990
-0.205
-0.735
-0.560
-0.300
-0.160
-0.160
-0.140
-0.140
-0.125
-0.115
-0.095
-0.085
-0.060
-0.045
-0.020
0.000
0.030
0.050
0.085
0.115
0.145
0.175
0.200
0.205
0.210
0.220
0.220
0.210
0.185
0.150
0.105
0.070
0.040
0.020
0.005
0.000
0.000
-0.005
0.000
-0.005
0.000
0.000
0.000
-0.010
-0.015
-0.025
-0.030
-0.035
-0.040
-0.050
-0.050
-0.055
-0.060
-0.070
-0.065
-0.075
-0.065
-0.070
-0.065
-0.080
-0.070
-0.080
-0.075
-0.085
-0.075
-0.085
-0.080
-0.085
-0.075
-0.095
-0.080
-0.095
-0.080
-0.095
-0.085
-0.105
-0.085
-0.070
-0.010
0.025
0.030
0.110
0.150
0.095
0.020
-0.035
-0.030
-0.165
-0.180
-0.190
-0.165
-0.200
-0.190
0.180
1.085
1.640
0.190
-0.640
-0.625
-0.390
-0.150
-0.160
-0.140
-0.150
-0.130
-0.135
-0.105
-0.115
-0.075
-0.070
-0.030
-0.015
0.015
0.030
0.060
0.085
0.125
0.150
0.185
0.195
0.210
0.205
0.210
0.205
0.200
0.170
0.145
0.110
0.080
0.050
0.025
0.015
0.010
0.010
0.015
0.010
0.015
0.015
0.015
0.005
0.000
0.000
-0.005
-0.015
-0.020
-0.030
-0.025
-0.035
-0.035
-0.040
-0.040
-0.045
-0.045
-0.055
-0.055
-0.060
-0.055
-0.060
-0.055
-0.065
-0.065
-0.065
-0.065
-0.070
-0.060
-0.075
-0.065
-0.075
-0.065
-0.075
-0.070
-0.080
-0.065
-0.080
-0.070
-0.080
-0.080
-0.065
-0.010
0.035
0.040
0.105
0.180
0.120
0.030
-0.025
-0.020
-0.145
-0.180
-0.190
-0.185
-0.190
-0.205
0.120
0.900
1.440
0.320
-0.530
-0.675
-0.455
-0.190
-0.170
-0.155
-0.155
-0.135
-0.145
-0.120
-0.110
-0.075
-0.065
-0.035
-0.030
0.010
0.025
0.060
0.075
0.110
0.145
0.170
0.185
0.195
0.200
0.215
0.200
0.205
0.190
0.160
0.110
0.080
0.055
0.030
0.015
0.010
-0.010
0.010
0.010
0.000
-0.005
0.000
0.000
0.000
-0.020
-0.030
-0.030
-0.035
-0.050
-0.040
-0.045
-0.060
-0.060
-0.050
-0.055
-0.050
-0.065
-0.055
-0.060
-0.060
-0.055
-0.070
-0.075
-0.065
-0.075
-0.075
-0.085
-0.070
-0.070
-0.070
-0.100
-0.055
-0.090
-0.075
-0.065
-0.025
0.025
0.050
0.120
0.210
0.125
0.045
-0.030
-0.025
-0.160
-0.170
-0.195
-0.160
-0.200
-0.170
0.215
0.915
1.395
0.320
-0.405
-0.700
-0.545
-0.245
-0.160
-0.125
-0.150
-0.110
-0.140
-0.095
-0.085
-0.055
-0.060
-0.015
-0.010
0.030
0.040
0.045
0.095
0.130
0.125
0.185
0.190
0.205
0.200
0.210
0.220
0.215
0.190
0.150
0.120
0.080
0.055
0.040
0.020
0.000
-0.010
0.000
0.005
-0.010
-0.010
-0.005
-0.005
-0.020
-0.025
-0.010
-0.045
-0.040
-0.040
-0.055
-0.070
-0.065
-0.075
-0.075
-0.070
-0.070
-0.075
-0.085
-0.075
-0.065
-0.085
-0.100
-0.080
-0.090
-0.085
-0.095
-0.100
-0.035
0.010
0.030
0.075
0.215
0.140
0.060
0.000
-0.035
-0.110
-0.180
-0.215
-0.180
-0.190
-0.240
0.040
0.715
1.285
0.810
-0.200
-0.755
-0.675
-0.360
-0.180
-0.160
-0.160
-0.145
-0.135
-0.115
-0.120
-0.100
-0.070
-0.055
-0.050
0.000
0.020
0.050
0.090
0.105
0.155
0.155
0.195
0.225
0.220
0.240
0.215
0.225
0.175
0.145
0.105
0.065
0.030
-0.015
-0.010
-0.015
-0.035
-0.005
-0.010
-0.025
-0.045
-0.020
-0.035
-0.050
-0.040
-0.055
-0.060
-0.075
-0.070
-0.085
-0.080
-0.090
-0.095
-0.090
-0.100
-0.085
-0.095
-0.090
-0.105
-0.105
-0.110
-0.120
-0.095
-0.055
0.005
0.020
0.055
0.170
0.145
0.045
-0.025
-0.040
-0.125
-0.195
-0.200
-0.210
-0.200
-0.250
0.025
0.720
1.365
0.965
-0.240
-0.765
-0.625
-0.340
-0.165
-0.160
-0.155
-0.145
-0.125
-0.130
-0.120
-0.085
-0.075
-0.055
-0.020
0.000
0.025
0.055
0.085
0.135
0.165
0.200
0.210
0.245
0.250
0.250
0.265
0.240
0.185
0.145
0.090
0.035
0.005
-0.010
-0.020
-0.025
-0.040
-0.045
-0.040
-0.035
-0.030
-0.025
-0.045
-0.045
-0.055
-0.055
-0.070
-0.070
-0.080
-0.070
-0.090
-0.100
-0.100
-0.095
-0.110
-0.100
-0.105
-0.095
-0.110
-0.115
-0.120
-0.105
-0.120
-0.090
-0.060
0.000
0.010
0.040
0.160
0.110
0.020
-0.005
-0.050
-0.100
-0.205
-0.205
-0.215
-0.195
-0.245
-0.090
0.470
1.330
1.515
-0.125
-0.810
-0.575
-0.325
-0.150
-0.170
-0.145
-0.150
-0.130
-0.135
-0.115
-0.105
-0.075
-0.055
-0.025
-0.015
0.020
0.040
0.075
0.105
0.155
0.180
0.215
0.235
0.250
0.250
0.255
0.220
0.205
0.160
0.110
0.075
0.020
-0.010
-0.020
-0.025
-0.025
-0.030
-0.030
-0.020
-0.025
-0.015
-0.005
-0.020
-0.030
-0.035
-0.020
-0.035
-0.040
-0.070
-0.065
-0.050
-0.060
-0.060
-0.060
-0.045
-0.075
-0.070
-0.070
-0.080
-0.085
-0.060
-0.090
-0.085
-0.090
-0.070
-0.100
-0.085
-0.075
-0.015
0.040
0.020
0.105
0.185
0.115
0.015
-0.040
-0.035
-0.160
-0.185
-0.190
-0.185
-0.195
-0.220
0.130
0.940
1.525
0.475
-0.465
-0.730
-0.530
-0.240
-0.160
-0.165
-0.140
-0.140
-0.140
-0.100
-0.110
-0.080
-0.065
-0.020
-0.020
0.005
0.030
0.060
0.080
0.125
0.160
0.205
0.220
0.225
0.230
0.260
0.250
0.245
0.200
0.165
0.115
0.085
0.045
0.010
0.015
-0.005
0.000
-0.015
-0.015
0.010
-0.015
-0.005
0.000
-0.025
-0.010
-0.040
-0.035
-0.045
-0.050
-0.050
-0.055
-0.075
-0.060
-0.070
-0.070
-0.080
-0.095
-0.080
-0.070
-0.085
-0.110
-0.085
-0.095
-0.100
-0.090
-0.095
-0.115
-0.100
-0.085
-0.050
0.020
0.030
0.065
0.190
0.130
0.055
-0.010
-0.020
-0.130
-0.185
-0.200
-0.190
-0.180
-0.230
0.055
0.750
1.375
0.880
-0.245
-0.765
-0.610
-0.335
-0.180
-0.155
-0.150
-0.145
-0.130
-0.110
-0.105
-0.085
-0.070
-0.050
-0.030
0.000
0.020
0.050
0.075
0.125
0.150
0.175
0.205
0.215
0.230
0.250
0.225
0.215
0.210
0.145
0.105
0.050
0.030
0.020
0.000
-0.010
0.000
-0.005
-0.020
-0.010
-0.005
-0.005
-0.020
-0.010
0.000
-0.020
-0.025
-0.040
-0.050
-0.045
-0.045
-0.055
-0.060
-0.065
-0.070
-0.065
-0.080
-0.065
-0.085
-0.080
-0.090
-0.075
-0.105
-0.090
-0.095
-0.095
-0.105
-0.085
-0.075
-0.005
0.030
0.025
0.120
0.155
0.100
0.025
-0.040
-0.050
-0.160
-0.185
-0.200
-0.170
-0.215
-0.230
0.160
1.050
1.665
0.345
-0.560
-0.680
-0.455
-0.190
-0.175
-0.140
-0.150
-0.120
-0.135
-0.105
-0.105
-0.070
-0.055
-0.020
-0.020
0.005
0.030
0.070
0.100
0.145
0.180
0.215
0.240
0.260
0.255
0.270
0.255
0.235
0.200
0.155
0.105
0.065
0.030
0.010
-0.005
-0.015
-0.020
-0.005
-0.010
0.000
0.000
-0.005
-0.005
0.000
-0.015
-0.025
-0.015
-0.025
-0.040
-0.040
-0.055
-0.060
-0.060
-0.065
-0.065
-0.075
-0.075
-0.080
-0.070
-0.065
-0.065
-0.060
-0.080
-0.080
-0.090
-0.080
-0.080
-0.070
-0.090
-0.080
-0.105
-0.085
-0.065
-0.015
0.035
0.050
0.115
0.185
0.105
0.030
-0.035
-0.025
-0.140
-0.190
-0.200
-0.165
-0.190
-0.220
0.140
0.990
1.600
0.440
-0.500
-0.680
-0.450
-0.190
-0.165
-0.145
-0.150
-0.120
-0.145
-0.100
-0.095
-0.090
-0.070
-0.040
-0.025
0.020
0.010
0.055
0.080
0.135
0.165
0.195
0.215
0.240
0.260
0.260
0.255
0.235
0.205
0.165
0.105
0.070
0.035
0.005
-0.015
-0.020
0.000
-0.020
-0.015
-0.020
-0.010
0.000
-0.035
-0.020
-0.010
-0.020
-0.040
-0.035
-0.040
-0.075
-0.055
-0.055
-0.075
-0.055
-0.070
-0.080
-0.080
-0.090
-0.095
-0.075
-0.085
-0.095
-0.085
-0.085
-0.085
-0.090
-0.085
-0.085
-0.090
-0.095
-0.070
-0.040
0.010
0.010
0.065
0.190
0.135
0.070
-0.010
-0.030
-0.120
-0.180
-0.200
-0.190
-0.185
-0.235
0.030
0.680
1.325
0.940
-0.215
-0.755
-0.610
-0.330
-0.165
-0.155
-0.160
-0.140
-0.125
-0.105
-0.105
-0.090
-0.070
-0.060
-0.030
0.005
0.035
0.060
0.075
0.120
0.150
0.195
0.210
0.230
0.245
0.250
0.245
0.245
0.200
0.150
0.110
0.070
0.030
0.005
-0.015
-0.025
-0.025
-0.010
-0.025
-0.025
-0.020
-0.020
-0.015
-0.025
-0.025
-0.050
-0.040
-0.050
-0.065
-0.055
-0.075
-0.070
-0.075
-0.085
-0.085
-0.085
-0.085
-0.080
-0.105
-0.085
-0.110
-0.090
-0.110
-0.105
-0.100
-0.090
-0.100
-0.090
-0.105
-0.090
-0.060
0.005
0.020
0.050
0.170
0.145
0.060
0.010
-0.045
-0.095
-0.200
-0.180
-0.215
-0.180
-0.235
-0.075
0.480
1.260
1.435
-0.050
-0.775
-0.650
-0.380
-0.165
-0.175
-0.135
-0.155
-0.135
-0.135
-0.115
-0.105
-0.075
-0.055
-0.030
-0.010
0.015
0.045
0.075
0.100
0.155
0.185
0.225
0.250
0.255
0.255
0.270
0.240
0.215
0.170
0.120
0.075
0.045
0.010
-0.005
-0.010
-0.010
-0.025
-0.020
-0.020
-0.015
-0.005
-0.015
-0.010
-0.025
-0.015
-0.015
-0.040
-0.055
-0.060
-0.055
-0.060
-0.075
-0.080
-0.080
-0.065
-0.065
-0.080
-0.075
-0.090
-0.085
-0.075
-0.070
-0.085
-0.075
-0.095
-0.095
-0.085
-0.085
-0.105
-0.090
-0.105
-0.095
-0.095
-0.020
0.025
0.010
0.065
0.160
0.110
0.025
-0.025
-0.030
-0.155
-0.190
-0.195
-0.200
-0.195
-0.250
0.070
0.880
1.500
0.700
-0.380
-0.750
-0.530
-0.270
-0.165
-0.155
-0.150
-0.135
-0.115
-0.110
-0.100
-0.085
-0.080
-0.050
-0.025
0.015
0.015
0.045
0.080
0.135
0.160
0.200
0.205
0.240
0.255
0.260
0.240
0.230
0.195
0.165
0.120
0.070
0.030
0.015
0.000
-0.010
-0.005
-0.025
-0.010
-0.005
0.010
-0.010
-0.015
0.005
-0.010
-0.025
-0.040
-0.030
-0.045
-0.055
-0.055
-0.060
-0.065
-0.050
-0.075
-0.080
-0.095
-0.080
-0.085
-0.075
-0.095
-0.080
-0.095
-0.105
-0.105
-0.095
-0.110
-0.090
-0.125
-0.085
-0.085
-0.025
0.025
0.030
0.115
0.165
0.085
0.020
-0.035
-0.055
-0.185
-0.170
-0.220
-0.190
-0.220
-0.150
0.280
1.135
1.645
0.150
-0.670
-0.730
-0.475
-0.205
-0.180
-0.150
-0.165
-0.130
-0.115
-0.090
-0.100
-0.060
-0.060
-0.015
-0.015
0.035
0.050
0.090
0.115
0.155
0.205
0.235
0.245
0.275
0.275
0.275
0.260
0.255
0.200
0.170
0.110
0.075
0.030
0.020
0.000
-0.005
0.000
-0.010
0.000
0.000
-0.005
0.000
-0.005
0.000
-0.020
-0.040
-0.025
-0.030
-0.055
-0.050
-0.050
-0.055
-0.060
-0.055
-0.085
-0.075
-0.080
-0.065
-0.090
-0.095
-0.095
-0.085
-0.100
-0.085
-0.100
-0.085
-0.115
-0.100
-0.115
-0.100
-0.085
-0.005
0.020
0.025
0.130
0.150
0.080
0.025
-0.040
-0.065
-0.190
-0.190
-0.215
-0.185
-0.235
-0.170
0.275
1.185
1.745
0.165
-0.700
-0.675
-0.445
-0.180
-0.170
-0.165
-0.170
-0.135
-0.140
-0.105
-0.095
-0.080
-0.080
-0.035
-0.025
0.025
0.025
0.065
0.115
0.155
0.170
0.235
0.245
0.270
0.270
0.280
0.275
0.245
0.200
0.160
0.105
0.065
0.045
0.000
-0.005
-0.015
-0.015
0.000
-0.015
-0.015
-0.015
-0.020
-0.015
-0.010
-0.015
-0.030
-0.025
-0.030
-0.045
-0.055
-0.055
-0.065
-0.070
-0.070
-0.075
-0.075
-0.065
-0.085
-0.070
-0.085
-0.080
-0.105
-0.100
-0.095
-0.075
-0.100
-0.095
-0.095
-0.085
-0.105
-0.095
-0.065
-0.015
0.020
0.025
0.135
0.145
0.085
0.025
-0.040
-0.060
-0.190
-0.190
-0.210
-0.165
-0.215
-0.165
0.265
1.170
1.730
0.155
-0.695
-0.670
-0.425
-0.175
-0.175
-0.155
-0.140
-0.125
-0.135
-0.100
-0.105
-0.075
-0.060
-0.015
-0.015
0.015
0.055
0.070
0.100
0.170
0.205
0.235
0.245
0.280
0.280
0.295
0.270
0.255
0.210
0.140
0.090
0.065
0.030
0.000
-0.010
-0.010
0.000
-0.015
-0.005
-0.025
-0.020
0.000
-0.010
0.000
-0.025
-0.050
-0.035
-0.035
-0.045
-0.055
-0.060
-0.070
-0.060
-0.075
-0.065
-0.075
-0.080
-0.075
-0.070
-0.080
-0.080
-0.085
-0.085
-0.100
-0.075
-0.090
-0.080
-0.110
-0.080
-0.085
-0.100
-0.085
-0.020
0.035
0.060
0.095
0.180
0.110
0.050
-0.010
-0.050
-0.170
-0.160
-0.190
-0.180
-0.200
-0.225
0.170
1.015
1.610
0.395
-0.505
-0.735
-0.520
-0.245
-0.180
-0.155
-0.170
-0.125
-0.145
-0.105
-0.105
-0.080
-0.075
-0.045
-0.035
0.000
0.020
0.060
0.070
0.130
0.160
0.205
0.240
0.255
0.235
0.250
0.255
0.245
0.215
0.155
0.115
0.060
0.035
0.010
-0.020
0.000
-0.025
-0.010
-0.005
-0.015
0.000
-0.005
0.000
-0.020
-0.030
-0.030
-0.035
-0.045
-0.060
-0.060
-0.060
-0.060
-0.080
-0.070
-0.080
-0.085
-0.065
-0.100
-0.115
-0.090
-0.095
-0.095
-0.090
-0.105
-0.090
-0.095
-0.100
-0.110
-0.090
-0.030
0.000
0.035
0.050
0.185
0.150
0.045
-0.020
-0.025
-0.115
-0.195
-0.190
-0.195
-0.190
-0.255
0.045
0.795
1.460
0.920
-0.260
-0.775
-0.605
-0.310
-0.170
-0.160
-0.155
-0.140
-0.135
-0.110
-0.120
-0.080
-0.075
-0.045
-0.025
0.000
0.025
0.060
0.090
0.125
0.165
0.210
0.230
0.245
0.275
0.270
0.255
0.235
0.210
0.145
0.110
0.065
0.020
0.000
-0.005
-0.030
-0.045
-0.035
-0.025
-0.015
-0.030
-0.020
-0.025
-0.025
-0.030
-0.040
-0.045
-0.050
-0.055
-0.060
-0.060
-0.060
-0.090
-0.095
-0.075
-0.090
-0.090
-0.090
-0.090
-0.085
-0.095
-0.110
-0.095
-0.115
-0.105
-0.105
-0.100
-0.095
-0.095
-0.040
0.010
0.010
0.065
0.170
0.110
0.020
-0.030
-0.050
-0.150
-0.215
-0.210
-0.210
-0.205
-0.260
0.015
0.750
1.475
1.040
-0.260
-0.770
-0.535
-0.260
-0.175
-0.175
-0.150
-0.145
-0.140
-0.135
-0.110
-0.090
-0.065
-0.045
-0.030
0.000
0.015
0.050
0.090
0.120
0.165
0.200
0.220
0.250
0.270
0.265
0.270
0.255
0.225
0.180
0.130
0.075
0.045
0.020
0.000
0.000
-0.005
-0.020
0.000
0.000
0.000
-0.005
0.000
-0.015
-0.010
-0.010
-0.030
-0.035
-0.045
-0.045
-0.045
-0.055
-0.065
-0.070
-0.085
-0.075
-0.080
-0.080
-0.085
-0.095
-0.080
-0.085
-0.090
-0.110
-0.070
-0.090
-0.095
-0.100
-0.095
-0.105
-0.070
-0.090
-0.085
-0.065
-0.030
0.050
0.025
0.105
0.175
0.110
0.025
-0.040
-0.035
-0.160
-0.175
-0.185
-0.170
-0.195
-0.230
0.130
0.995
1.620
0.470
-0.485
-0.715
-0.495
-0.210
-0.175
-0.150
-0.145
-0.125
-0.125
-0.115
-0.110
-0.080
-0.070
-0.025
-0.030
0.015
0.015
0.065
0.090
0.130
0.175
0.205
0.225
0.250
0.260
0.270
0.275
0.250
0.215
0.160
0.105
0.080
0.035
0.005
0.000
-0.010
-0.005
-0.010
-0.010
-0.015
-0.005
0.005
-0.005
-0.005
0.000
-0.015
-0.030
-0.025
-0.040
-0.025
-0.060
-0.050
-0.060
-0.050
-0.065
-0.070
-0.080
-0.075
-0.095
-0.075
-0.080
-0.075
-0.100
-0.075
-0.085
-0.085
-0.115
-0.080
-0.090
-0.110
-0.050
0.000
0.010
0.040
0.135
0.140
0.075
-0.005
-0.030
-0.075
-0.175
-0.185
-0.215
-0.180
-0.235
-0.135
0.325
1.180
1.595
0.050
-0.730
-0.705
-0.450
-0.185
-0.210
-0.155
-0.145
-0.125
-0.155
-0.105
-0.105
-0.080
-0.070
-0.010
-0.030
0.015
0.040
0.070
0.090
